6.894553421501038379e-03
-5.376375553692438330e-03
-1.716699319697771037e-02
-2.821155975202453703e-02
-3.858893652694358328e-02
-4.862434212667483824e-02
-5.859698812787160482e-02
-6.835103637724659897e-02
-7.696467626252312400e-02
-8.263637151388064650e-02
-8.289058710977426081e-02
-7.510462491539571239e-02
-5.725194219148087293e-02
-2.868196134450722717e-02
9.278003090050439272e-03
5.311737387712450742e-02
9.752097507492024642e-02
1.364075013733363484e-01
1.644681642655458076e-01
1.787354573277352143e-01
1.795093321968213307e-01
1.700950482436830447e-01
1.553242283969545334e-01
1.395014912828544118e-01
1.248054970668570213e-01
1.109505936107280932e-01
9.616730652419080982e-02
7.877742838207188458e-02
5.836906869495322309e-02
3.598694184020687775e-02
1.349195161681221444e-02
-7.266177716187989521e-03
-2.490258762337185794e-02
-3.849727330869616437e-02
-4.746482780741098639e-02
-5.161253982973311449e-02
-5.137683224992614650e-02
-4.794618575963449647e-02
-4.302413331916843386e-02
-3.829677720036494398e-02
-3.493350884052458249e-02
-3.342127758847777269e-02
-3.375588261427592274e-02
-3.575473649611975169e-02
-3.923594633218899924e-02
-4.400643472727040761e-02
-4.979956625607815518e-02
-5.631302304648988510e-02
-6.333883489503842890e-02
-7.083667742441246418e-02
-7.883666206539327592e-02
-8.723827952343121694e-02
-9.571049640741156883e-02
-1.038360567006235691e-01
-1.114118122467675775e-01
-1.186191408377946094e-01
-1.258094631326549251e-01
-1.329187556350688304e-01
-1.388364104722378256e-01
-1.411653658060234295e-01
-1.366292735163338878e-01
-1.220343992873356709e-01
-9.541275569450557992e-02
-5.691356759161642076e-02
-9.148841465458842914e-03
4.310372122897931924e-02
9.378709806035639973e-02
1.368755249054209588e-01
1.678090440358603608e-01
1.846080707992344694e-01
1.882055068201533843e-01
1.817761369130076743e-01
1.693069388036673728e-01
1.540758205225914723e-01
1.377749160210915980e-01
1.206263415261662753e-01
1.022317517890328209e-01
8.249538726108443520e-02
6.204033478686141884e-02
4.200195911682190475e-02
2.354183636595700430e-02
7.529284691831422682e-03
-5.438266458939824272e-03
-1.486465610333059795e-02
-2.033685768109231781e-02
-2.176027451659384715e-02
-1.965514908732990396e-02
-1.522176235521475671e-02
-1.005507086842739525e-02
-5.661043376697080798e-03
-3.056725814137602540e-03
-2.639769341656188727e-03
-4.310627449542593290e-03
-7.701915179215238286e-03
-1.238463534761023374e-02
-1.800706512468737766e-02
-2.437143819414238147e-02
-3.144076103547355228e-02
-3.925568249885492966e-02
-4.778612255114485230e-02
-5.681643688852856811e-02
-6.597700421806382276e-02
-7.493849822602838273e-02
-8.363504537900873226e-02
-9.230751470918367729e-02
-1.012439582654604403e-01
-1.102977322443270680e-01
-1.184389930015086606e-01
-1.236117750489722084e-01
-1.230200441553368496e-01
-1.137682911222414051e-01
-9.366599351473416102e-02
-6.200136767616006017e-02
-2.012075327735830116e-02
2.836329349174829262e-02
7.793922807369582650e-02
1.222566707008805598e-01
1.557170679484578546e-01
1.750654753028894062e-01
1.802688297336177414e-01
1.741873826616715526e-01
1.611322959626007023e-01
1.450159099993704737e-01
1.280290503107001099e-01
1.104463081452866924e-01
9.147652231005690138e-02
7.049527074076533673e-02
4.788469810225174511e-02
2.508354170013935361e-02
4.003307962328724739e-03
-1.369458141944616958e-02
-2.702087174917071344e-02
-3.566361815456760287e-02
-3.976650871173883356e-02
-3.975042391366922362e-02
-3.630427367236527952e-02
-3.046663146645159012e-02
-2.362263435031695946e-02
-1.730348567796449050e-02
-1.282911829683055539e-02
-1.096258056635458430e-02
-1.176557159391519031e-02
-1.474629773651818694e-02
-1.922785674546393861e-02
-2.473207720232630663e-02
-3.115878321963453518e-02
-3.866871074478452769e-02
-4.737647913499133667e-02
-5.709029342798324635e-02
-6.729426714457537040e-02
-7.738056185825019362e-02
-8.694666934026820670e-02
-9.593003576701214508e-02
-1.044855887625509433e-01
-1.126991010802813192e-01
-1.203099957125970398e-01
-1.265427238597253423e-01
-1.300243158840701518e-01
-1.287500976290552601e-01
-1.201824220302094570e-01
-1.016857880856912311e-01
-7.142218363243549306e-02
-2.951047870488852226e-02
2.110671216041290488e-02
7.472919772369822355e-02
1.241732559087717624e-01
1.628668794921298568e-01
1.868390863669551483e-01
1.956494326459151667e-01
1.918576900174525091e-01
1.794322610431242915e-01
1.620248061668069783e-01
1.419708261631700275e-01
1.203041239167453591e-01
9.742754018548252515e-02
7.380068113686982789e-02
5.021254799619635084e-02
2.765430670256803503e-02
7.105220571430197196e-03
-1.051326333962830650e-02
-2.425036820125665155e-02
-3.315068189656153463e-02
-3.655658688204009577e-02
-3.456432455074492927e-02
-2.829027081532681578e-02
-1.967643081023972423e-02
-1.088483277734652102e-02
-3.630292455051485449e-03
1.172212339958764865e-03
3.327025658283601188e-03
3.035812399906817009e-03
6.290220328148202200e-04
-3.512347650907932453e-03
-8.942754648386997546e-03
-1.522082446606574588e-02
-2.209581508103137387e-02
-2.965413229414409421e-02
-3.823734944399785618e-02
-4.812364384265777062e-02
-5.919143714425856989e-02
-7.083837287958205664e-02
-8.224559508006260011e-02
-9.280360543216205349e-02
-1.023752125968375726e-01
-1.111713713617188404e-01
-1.192738819990434573e-01
-1.260679880266616371e-01
-1.299093529243264267e-01
-1.282376311601045593e-01
-1.181562667481477757e-01
-9.732540612439104233e-02
-6.490693841491243510e-02
-2.225713784029247772e-02
2.691508159048468241e-02
7.709162525219284690e-02
1.221353380372645625e-01
1.567948686828797566e-01
1.779955847476967223e-01
1.854151649856082551e-01
1.811314000197219443e-01
1.685490638407114439e-01
1.511259015048265486e-01
1.314417280672192656e-01
1.108938924447190333e-01
8.994549103534446588e-02
6.862794681885311943e-02
4.700650236947515742e-02
2.547272527183867125e-02
4.864936486248586794e-03
-1.356028741737794890e-02
-2.832744579053238232e-02
-3.812781332893815101e-02
-4.229773644023524654e-02
-4.116659080617009192e-02
-3.604680980918510691e-02
-2.881685287429738840e-02
-2.130350156380930379e-02
-1.480489368568077557e-02
-9.990088768654047796e-03
-7.136492964615723592e-03
-6.437980488474940449e-03
-8.113977289846256019e-03
-1.226420320898583341e-02
-1.865465601041121219e-02
-2.668081180233980443e-02
-3.558933278968096775e-02
-4.480247040162777666e-02
-5.409173613964828736e-02
-6.347404925979663326e-02
-7.294116232138370126e-02
-8.227258283513130821e-02
-9.110000809300854152e-02
-9.915393662832444610e-02
-1.064303020373459502e-01
-1.130350446490714089e-01
-1.186987010892486122e-01
-1.222341879052180752e-01
-1.213318001390314149e-01
-1.129523578295713038e-01
-9.427350137181678136e-02
-6.385143739400746254e-02
-2.253700604279412767e-02
2.623316445060405733e-02
7.693220492804797583e-02
1.231301960047493371e-01
1.590482421883233077e-01
1.810000407262634392e-01
1.882244485126157163e-01
1.827913285432254120e-01
1.686164617809612354e-01
1.500014573862581968e-01
1.303104833521481210e-01
1.112836209638703167e-01
9.313648210040464948e-02
7.522554128567361664e-02
5.687073244232176278e-02
3.797081159247927412e-02
1.922432517436813149e-02
1.950699148080867196e-03
-1.236744560413636021e-02
-2.262236350270577928e-02
-2.847192785386556610e-02
-3.040752877049064662e-02
-2.947561839234945011e-02
-2.682033151230592272e-02
-2.331898230710819503e-02
-1.950968905858874516e-02
-1.579764176819145258e-02
-1.272542389570743490e-02
-1.105461615330662062e-02
-1.156006939081221513e-02
-1.466812570597884717e-02
-2.020335255246389836e-02
-2.744622167073473840e-02
-3.549095328873844851e-02
-4.368060200475205185e-02
-5.183682478802233151e-02
-6.014047024764091615e-02
-6.876366022146410129e-02
-7.753390053713341001e-02
-8.589335227369876424e-02
-9.320300220355939858e-02
-9.917481701900138225e-02
-1.040853747373213650e-01
-1.085352986623486227e-01
-1.128087942561809137e-01
-1.161707624136303213e-01
-1.165337599752085534e-01
-1.107761391441834109e-01
-9.568685758909330208e-02
-6.921485110107634953e-02
-3.154439710609666103e-02
1.444759924722313627e-02
6.359401243692429373e-02
1.096367617727203314e-01
1.468500000510438441e-01
1.715182109275456279e-01
1.827238926860681179e-01
1.821670653697194109e-01
1.731470555313372184e-01
1.591886200871632795e-01
1.429075586390964880e-01
1.255330484676447922e-01
1.071467012379877237e-01
8.736555531507866901e-02
6.605543746110720260e-02
4.374828730745015937e-02
2.165531756854967987e-02
1.371396954923012612e-03
-1.554089104161136131e-02
-2.791919671681290099e-02
-3.522782887757703457e-02
-3.762054101718022292e-02
-3.586261544170686599e-02
-3.115677559824045831e-02
-2.492159592928774522e-02
-1.856182876378653646e-02
-1.325825063532416921e-02
-9.804891941523143778e-03
-8.533167797973202628e-03
-9.360967699374108525e-03
-1.196535636359945080e-02
-1.601065208184677263e-02
-2.131884548724960471e-02
-2.789307730354805698e-02
-3.579188365663543703e-02
-4.494275664769094292e-02
-5.501519577465489169e-02
-6.543193764523728972e-02
-7.552067142243609754e-02
-8.474348239126550109e-02
-9.290329825453230717e-02
-1.002098096887603929e-01
-1.071013161375113237e-01
-1.137974269939942551e-01
-1.197123197896785007e-01
-1.230243681819341850e-01
-1.207457179147757714e-01
-1.094676882871174206e-01
-8.661635774661743947e-02
-5.172545544006456469e-02
-7.135399579239351531e-03
4.225811869819062760e-02
9.016602237950227527e-02
1.305457414512573300e-01
1.591099048145601380e-01
1.741891154135470909e-01
1.767217177894672142e-01
1.694829532611896727e-01
1.559235123430835479e-01
1.390773489624741455e-01
1.209023424350946507e-01
1.021911397329006987e-01
8.294446154050842679e-02
6.294688679592638780e-02
4.227522177151211286e-02
2.156776550019531835e-02
2.009531053416856172e-03
-1.491720666586419247e-02
-2.781643177428181485e-02
-3.576976810408836333e-02
-3.860526272041339690e-02
-3.694829081532262360e-02
-3.204206937707243519e-02
-2.542267803597127868e-02
-1.858554753438496771e-02
-1.275226650126606506e-02
-8.765119364515652073e-03
-7.069522860221274380e-03
-7.738557920403523437e-03
-1.053419389986346745e-02
-1.502813758864040075e-02
-2.077916250882923255e-02
-2.750050826465163731e-02
-3.511452002965863295e-02
-4.363543108637617240e-02
-5.293464257399802669e-02
-6.254859465528812834e-02
-7.169661727350415403e-02
-7.955498259610166434e-02
-8.565142334470425556e-02
-9.012946289838981440e-02
-9.367794360005894660e-02
-9.710875360566918746e-02
-1.007693823691006713e-01
-1.040625616935446640e-01
-1.052778605527877193e-01
-1.018017092310464916e-01
-9.067093218323379888e-02
-6.939434815454408045e-02
-3.691499755405541761e-02
5.539706616361869673e-03
5.410761912759988468e-02
1.028012602654707064e-01
1.449288065212847310e-01
1.749922601096505770e-01
1.902720818109453205e-01
1.913728501665386272e-01
1.815119996300537941e-01
1.649787638835474024e-01
1.455587553825043179e-01
1.256005124987963351e-01
1.059335981104368163e-01
8.638601415647029214e-02
6.646848562000631788e-02
4.590896181157833739e-02
2.493975390590396496e-02
4.370691124121112159e-03
-1.451238847280771765e-02
-3.021015952661025572e-02
-4.139046832893957667e-02
-4.727365201958090568e-02
-4.787721772832791850e-02
-4.402894450960837675e-02
-3.716284572687784948e-02
-2.899360993692053079e-02
-2.118121883155314744e-02
-1.506652265530091829e-02
-1.152003921966783528e-02
-1.091637192384937310e-02
-1.321703310892062382e-02
-1.811285641726853579e-02
-2.516232957722478597e-02
-3.388160878407327214e-02
-4.378351757747822592e-02
-5.439115882321645529e-02
-6.524698777229619162e-02
-7.591960195940830602e-02
-8.601182007335587965e-02
-9.519508362789015632e-02
-1.032930705942863431e-01
-1.103751885868734656e-01
-1.167324277012855988e-01
-1.225951524122226716e-01
-1.275926426488830923e-01
-1.301994784948310169e-01
-1.275849092789301253e-01
-1.161938595847914202e-01
-9.301998490595811409e-02
-5.708202897332475406e-02
-1.038673266827218333e-02
4.216134566276578954e-02
9.394176901974160554e-02
1.384039143077457901e-01
1.707227863835877324e-01
1.887363697899338000e-01
1.929734041364494501e-01
1.859698577903654004e-01
1.712595966892334898e-01
1.523894685734462628e-01
1.321687986183373298e-01
1.122483583262893769e-01
9.307388795332753595e-02
7.421920213120257459e-02
5.500818585833825575e-02
3.519677241806225265e-02
1.540662156218133849e-02
-2.915003928816328749e-03
-1.799366573337041197e-02
-2.840955787868409271e-02
-3.359188215914666459e-02
-3.389897971723791759e-02
-3.033791202343197324e-02
-2.418448547392660145e-02
-1.675043170278196075e-02
-9.342941812564814485e-03
-3.259554992889204892e-03
3.620420780978740073e-04
8.461480327156102946e-04
-1.770411918913759267e-03
-6.787633152394759520e-03
-1.325215721092486490e-02
-2.050450240510690719e-02
-2.849654520483680537e-02
-3.764657623465111902e-02
-4.832981201873877419e-02
-6.037949113189491207e-02
-7.297700609737856059e-02
-8.502608093593214122e-02
-9.574537212057779301e-02
-1.050447704376263197e-01
-1.133929357477929806e-01
-1.212236636664232592e-01
-1.282211992191978067e-01
-1.328867545157131902e-01
-1.326230335817472072e-01
-1.243292648637458753e-01
-1.053241844847135206e-01
-7.434510380262003559e-02
-3.235089547216526279e-02
1.715601054004871340e-02
6.853209215638132734e-02
1.151799735740210440e-01
1.512514625462591245e-01
1.732714068860279344e-01
1.809945737773709373e-01
1.770825599217897284e-01
1.657342427695854270e-01
1.509236795600412129e-01
1.350800781426517438e-01
1.187683615359914346e-01
1.013598499478555182e-01
8.216252507190470455e-02
6.130994015363976785e-02
3.995877324549956811e-02
1.982417630961945398e-02
2.467779203287424894e-03
-1.118768552283695705e-02
-2.090321795211863565e-02
-2.686492600248015922e-02
-2.943233510838332012e-02
-2.909682477839490092e-02
-2.659734376510675471e-02
-2.297593933603117589e-02
-1.941910846750115674e-02
-1.694396787019338685e-02
-1.614275390045500497e-02
-1.715583281573446195e-02
-1.985421525085959843e-02
-2.405812296654970955e-02
-2.962989569635952891e-02
-3.642312097053081177e-02
-4.419589153833304584e-02
-5.259496120205197495e-02
-6.121889779970036971e-02
-6.969198658956139714e-02
-7.770176269738413022e-02
-8.502635086398438458e-02
-9.159718041422895696e-02
-9.756762419846577716e-02
-1.032684356383518909e-01
-1.089471659734393277e-01
-1.143391897533019286e-01
-1.182916073991996941e-01
-1.187033919770571072e-01
-1.129037987286637124e-01
-9.836864110121575078e-02
-7.353074015735952540e-02
-3.844696442444098250e-02
4.829885121913610191e-03
5.227428517080882908e-02
9.840819914691897874e-02
1.373725564644092123e-01
1.644023554400957099e-01
1.772502991516255733e-01
1.769137405935038709e-01
1.671797463744628676e-01
1.530341898330875028e-01
1.386112492922642048e-01
1.256807598894278954e-01
1.134280269632948757e-01
9.957897395675548158e-02
8.218083052294603008e-02
6.102117892079345768e-02
3.794469629407354327e-02
1.601005184184969149e-02
-1.918586957779098989e-03
-1.431341738293151131e-02
-2.129678087596781344e-02
-2.412068424564924388e-02
-2.427897431566416325e-02
-2.283988980536003424e-02
-2.033255867170775943e-02
-1.709947168374949950e-02
-1.372402982171143891e-02
-1.114085753692616032e-02
-1.031280944894420216e-02
-1.170852709621717815e-02
-1.498966867941275288e-02
-1.918875332992331026e-02
-2.330980497299441068e-02
-2.696252820538376158e-02
-3.058981718783885390e-02
-3.512245165291087712e-02
-4.130231649342300249e-02
-4.915187268782711394e-02
-5.795118114318354580e-02
-6.670535606555486052e-02
-7.473862684774737475e-02
-8.199398155225735840e-02
-8.886539038125917944e-02
-9.572001184415186714e-02
-1.024227266404518222e-01
-1.080798084487462896e-01
-1.110206913924527555e-01
-1.089454438989598262e-01
-9.924277729162742090e-02
-7.958686923782873346e-02
-4.885166881778672809e-02
-8.100497243338958264e-03
3.887861699364919543e-02
8.601665546462014533e-02
1.264898407642920108e-01
1.547993159958895582e-01
1.684553191766361702e-01
1.684405153792278842e-01
1.582642993782800156e-01
1.421769166463055512e-01
1.235066436343789514e-01
1.038867272751235193e-01
8.352738823876190710e-02
6.209391982330770415e-02
3.954123014300209293e-02
1.648304133298830743e-02
-5.911797965908280328e-03
-2.623324798425447080e-02
-4.311479029896877341e-02
-5.544788645754796658e-02
-6.261485466478605710e-02
-6.475574168449732548e-02
-6.290617356919306347e-02
-5.878676806061797211e-02
-5.421588356417899462e-02
-5.043207474307261767e-02
-4.776539141039053832e-02
-4.590172894676843030e-02
-4.455177594107714162e-02
-4.400827996882596127e-02
-4.514029364011284962e-02
-4.880254438859606136e-02
-5.509298334230391253e-02
-6.300175732355897673e-02
-7.067428780492013285e-02
-7.603382114131018721e-02
-7.727758225822511928e-02
-7.296484530489716347e-02
-6.186621103537762179e-02
-4.302820438221818811e-02
-1.633846312035699966e-02
1.664677417175629281e-02
5.229396959042076354e-02
8.551474319163535065e-02
1.113991098422562054e-01
1.270653073642363795e-01
1.326245841545944937e-01
1.306295300748199495e-01
1.243474258546194144e-01
1.159785302856806699e-01
1.059312336897258316e-01
9.346619695217966983e-02
7.803942277058918686e-02
6.025771014873050613e-02
4.179406400377425057e-02
2.449496481284495902e-02
9.509281216429205791e-03
-2.872827691822531226e-03
-1.267506294457891591e-02
-1.960206723229881293e-02
-2.296020205320138327e-02
-2.223455393846398079e-02
-1.782142102732700226e-02
-1.126250395861567652e-02
-4.724937658475181733e-03
-6.159363356137781756e-05
1.913676686218552039e-03
1.497856134491648387e-03
-4.278654433274783897e-04
-3.081953306916102031e-03
-6.166684231603144183e-03
-9.797593837278602627e-03
-1.416427435576946350e-02
-1.923676971840416333e-02
-2.470734278815023624e-02
-3.013745415246361567e-02
-3.515254145128705182e-02
-3.955790787550718390e-02
-4.336016797767765218e-02
-4.675074180497693077e-02
-5.009062066187346118e-02
-5.387455646443074786e-02
-5.862743605948608772e-02
-6.473031977802304326e-02
-7.225075979263076431e-02
-8.088901181839935894e-02
-9.010332502089533901e-02
-9.936363007541546000e-02
-1.083784261341702443e-01
-1.171233439855356856e-01
-1.255965228524088539e-01
-1.333824370782950575e-01
-1.392257462982215976e-01
-1.408333225906122088e-01
-1.350480368258525354e-01
-1.184379570077433580e-01
-8.825834052299032229e-02
-4.363697410047253505e-02
1.334357884931970661e-02
7.718581075904130950e-02
1.396684024149330294e-01
1.918475301528205224e-01
2.268212543244884916e-01
2.420624187377696801e-01
2.400673448534740850e-01
2.268320194918230504e-01
2.088910553574732654e-01
1.905363551532557320e-01
1.727086706877366540e-01
1.539531687613499289e-01
1.325105485711111641e-01
1.080162040897699877e-01
8.178912511581845624e-02
5.585091532601039327e-02
3.170409471353843878e-02
9.880239965141514313e-03
-9.533245808115903275e-03
-2.603852671391430201e-02
-3.841647141203996529e-02
-4.529865700985623994e-02
-4.617953322154898926e-02
-4.205313142067016591e-02
-3.516415381043230121e-02
-2.804958791762533071e-02
-2.254335865250292267e-02
-1.936056214964981467e-02
-1.837953791281677490e-02
-1.923969732360058735e-02
-2.175158863300240969e-02
-2.589957059634785674e-02
-3.160613929497854691e-02
-3.858341619942000367e-02
-4.643227729881262145e-02
-5.486375371346614849e-02
-6.379219388929457946e-02
-7.319017270936817310e-02
-8.284964358358275216e-02
-9.230804478005635860e-02
-1.010537394025700919e-01
-1.088487828115505818e-01
-1.158548416929318231e-01
-1.223728146764908042e-01
-1.283153455263938425e-01
-1.327638276799234518e-01
-1.339214577852651522e-01
-1.295041957072195493e-01
-1.173506377670632539e-01
-9.598952842861691037e-02
-6.506540835668878087e-02
-2.567363056818663253e-02
1.939355857194870192e-02
6.569123036514668001e-02
1.077550764478565903e-01
1.403979669142655373e-01
1.602730381019770167e-01
1.669481580571047508e-01
1.628424199722208199e-01
1.519666843423866653e-01
1.381154857158166660e-01
1.234818492599140394e-01
1.083743876381673132e-01
9.201333821459524442e-02
7.375520475062685710e-02
5.394714836445908823e-02
3.398259733324740517e-02
1.570292442179417602e-02
6.554573599125215755e-04
-1.032971575270128645e-02
-1.712416997361150203e-02
-2.005461775195046051e-02
-1.970601988487782896e-02
-1.687728853184190803e-02
-1.257497434264392630e-02
-7.884177316820796186e-03
-3.706985057945273027e-03
-5.396326553460950581e-04
1.521807639646207549e-03
2.533257928542256669e-03
2.410064512427729545e-03
8.362579030987936368e-04
-2.547468482183621805e-03
-7.841235235641171725e-03
-1.473180504268933183e-02
-2.261867945079561876e-02
-3.091102827799391967e-02
-3.925144230958629854e-02
-4.751131580989114561e-02
-5.562499470887277697e-02
-6.347322819337636313e-02
-7.095273647313138365e-02
-7.814340648278816914e-02
-8.532130989903248530e-02
-9.263522188658582235e-02
-9.953879501954440712e-02
-1.043385816716569381e-01
-1.042556495008749862e-01
-9.614965423359611574e-02
-7.767421438955222912e-02
-4.836701854939667866e-02
-1.018517879124275494e-02
3.274956899470735094e-02
7.509372876889790216e-02
1.115641484176931320e-01
1.381379907167152032e-01
1.528307443861161574e-01
1.558778944935443889e-01
1.493301041040024923e-01
1.362322928565101177e-01
1.196637444766211755e-01
1.019438174787975215e-01
8.424257720718147935e-02
6.668939536625700937e-02
4.888710038541415476e-02
3.057982433140731676e-02
1.215926921282240239e-02
-5.229776360465211715e-03
-2.002622135371502632e-02
-3.084575779633198789e-02
-3.701386546262321747e-02
-3.877206184874156664e-02
-3.709262822130741238e-02
-3.326017322669063553e-02
-2.847813207543348213e-02
-2.368212612263816824e-02
-1.956508876131470009e-02
-1.667922172388953961e-02
-1.546929047338477942e-02
-1.619436522461350364e-02
-1.881488246698677369e-02
-2.296620992405616971e-02
-2.808398112632055216e-02
-3.363718933267743905e-02
-3.933899613259762840e-02
-4.520122242696874432e-02
-5.138771864594354755e-02
-5.795815746098705035e-02
-6.468862755487118921e-02
-7.112578981751013774e-02
-7.686778585803660802e-02
-8.186646226977113694e-02
-8.646903480614277770e-02
-9.105710720031776062e-02
-9.542928487332984211e-02
-9.830660931644585876e-02
-9.733024090489227065e-02
-8.965625458013727622e-02
-7.291650460781004539e-02
-4.613748596895204945e-02
-1.027957826248569739e-02
3.173129967418966690e-02
7.543830426195821670e-02
1.156587481074276280e-01
1.475462767640099149e-01
1.677100652511210599e-01
1.750547494418868699e-01
1.709719905239701354e-01
1.587137725148297096e-01
1.421530822489757706e-01
1.244595994022817398e-01
1.072630694669971796e-01
9.061052574445027652e-02
7.361939699125016889e-02
5.542512005587471591e-02
3.595571403424630691e-02
1.621609731405505850e-02
-1.983187085839561992e-03
-1.668228063104883543e-02
-2.650018248629333953e-02
-3.111260885990613581e-02
-3.128717356815895190e-02
-2.850382294844358219e-02
-2.439208071244413148e-02
-2.028417833009623500e-02
-1.706701744630654410e-02
-1.529331612077671279e-02
-1.534494881386861895e-02
-1.745544354962530464e-02
-2.157670901314553275e-02
-2.726094587405125669e-02
-3.375333747017504604e-02
-4.032137651607307915e-02
-4.662326403651603779e-02
-5.284002717648456082e-02
-5.944823048165606694e-02
-6.678241422433009444e-02
-7.471087767698192383e-02
-8.267802910555696605e-02
-9.009411700132609335e-02
-9.677737959669556467e-02
-1.030776242458466274e-01
-1.094960588852051664e-01
-1.159480997650197687e-01
-1.210844200409663812e-01
-1.221234292699357044e-01
-1.154282904352339212e-01
-9.770194328545855900e-02
-6.736053739045558264e-02
-2.552713182336147774e-02
2.379384380487203909e-02
7.450518960990376582e-02
1.199541883258665176e-01
1.547066453819595511e-01
1.759199572787942811e-01
1.837995547744634139e-01
1.809865747984744089e-01
1.711930573957374802e-01
1.577362325911968455e-01
1.426200979050187279e-01
1.264579526944638599e-01
1.090463614877571069e-01
9.010210082676739507e-02
6.972900324288017204e-02
4.849198443625189758e-02
2.726761192533081607e-02
7.101798513611336933e-03
-1.085021173725702476e-02
-2.540180466072763238e-02
-3.554689525853307192e-02
-4.077708977153200742e-02
-4.132878508554324593e-02
-3.818774138740200358e-02
-3.283129474555591260e-02
-2.685100421457077557e-02
-2.163422956036044342e-02
-1.818558333110625869e-02
-1.705395671209452430e-02
-1.830893501167566925e-02
-2.157698709399513692e-02
-2.619679395196110316e-02
-3.149892020036709761e-02
-3.709300610298729012e-02
-4.298450313523717592e-02
-4.943328458193985142e-02
-5.665667098862342543e-02
-6.460856217322083483e-02
-7.300965570644037117e-02
-8.159398848064813858e-02
-9.034450353902401254e-02
-9.947623076738740244e-02
-1.091033202084399634e-01
-1.187545595774993357e-01
-1.270119527290578532e-01
-1.314807191550652621e-01
-1.291395847820061282e-01
-1.169940016362365776e-01
-9.291007582482639637e-02
-5.648488025810730062e-02
-9.734270368931582929e-03
4.272391094832725389e-02
9.430655801807025229e-02
1.379879897342386474e-01
1.683185023901208055e-01
1.831366478175645296e-01
1.841273596975770144e-01
1.758421413517630150e-01
1.635755666606789616e-01
1.511290589198352463e-01
1.395679275119514062e-01
1.275104302340366591e-01
1.126193208326161932e-01
9.333975234113264796e-02
6.991577395759002167e-02
4.427462621821054434e-02
1.908217314771507717e-02
-3.323711968307968556e-03
-2.152345354796556670e-02
-3.498431804784619265e-02
-4.369146420795208541e-02
-4.784959757639146299e-02
-4.786492872803104620e-02
-4.451065886017342710e-02
-3.901565526967996911e-02
-3.289536379180089953e-02
-2.756761996630599509e-02
-2.397160657299522366e-02
-2.240786819511173325e-02
-2.266302229153324341e-02
-2.430607948673696450e-02
-2.696888922619311221e-02
-3.047900248502259657e-02
-3.483102368157977441e-02
-4.007121680208734771e-02
-4.618718503089053878e-02
-5.305934558065072970e-02
-6.048634520787565805e-02
-6.826587763244014451e-02
-7.629173355475965534e-02
-8.460885737295789633e-02
-9.335881605159714047e-02
-1.025700104533410761e-01
-1.118128001104806701e-01
-1.198334560780343616e-01
-1.243580489048342619e-01
-1.222653978580540007e-01
-1.102344819830821387e-01
-8.578614189539375545e-02
-4.842153549624107767e-02
-4.089298704933741480e-04
5.321214428944560926e-02
1.056035533826596151e-01
1.498696416870470005e-01
1.809612225620871873e-01
1.969701335742189974e-01
1.992522327422953377e-01
1.913493968713423365e-01
1.772675474066209289e-01
1.599670754389350691e-01
1.407438433066325323e-01
1.196292137070664174e-01
9.636443500594554790e-02
7.126450912393783588e-02
4.549632481223640085e-02
2.076005992588557392e-02
-1.266566679689586084e-03
-1.932031847623715687e-02
-3.262925657759285780e-02
-4.081353247203590995e-02
-4.384323969003372373e-02
-4.214519384420225417e-02
-3.673896866196703359e-02
-2.920281864312129771e-02
-2.138448547908294167e-02
-1.496603496169010908e-02
-1.109520881877901557e-02
-1.023621359225433333e-02
-1.224590943395560856e-02
-1.658073004114217139e-02
-2.254534358397999524e-02
-2.954661209882062517e-02
-3.731789054404666822e-02
-4.601435564941534773e-02
-5.604986492756067890e-02
-6.765986853138036827e-02
-8.040750581700703559e-02
-9.301058139092090171e-02
-1.037509461811068207e-01
-1.113317380756057712e-01
-1.156395789508172095e-01
-1.178028152761661923e-01
-1.193455831966687281e-01
-1.208716554394731191e-01
-1.211044717213867195e-01
-1.169481931807100639e-01
-1.046235901291552167e-01
-8.130806191780816372e-02
-4.648156147615389866e-02
-2.425930302264400762e-03
4.621363071968885572e-02
9.354141022934320260e-02
1.338115621077468620e-01
1.627455423995866346e-01
1.784295736029110346e-01
1.815134115723764374e-01
1.746140550764362365e-01
1.611489100192820267e-01
1.441156172356067855e-01
1.253670630328898861e-01
1.056265301925959632e-01
8.504201431895475061e-02
6.380978066592402076e-02
4.248273617939292424e-02
2.190617976874736916e-02
3.000066900047042989e-03
-1.337385550316537441e-02
-2.641405911433582221e-02
-3.538525977203926115e-02
-3.975973876527893330e-02
-3.946695011175173351e-02
-3.508643349777107456e-02
-2.783431979792924671e-02
-1.933227173179031394e-02
-1.127102596594990909e-02
-5.093498413703332998e-03
-1.756478648790023561e-03
-1.584094286645368332e-03
-4.244167212669073402e-03
-8.903519165674462360e-03
-1.456901691951226555e-02
-2.049944631346405782e-02
-2.648118567099042378e-02
-3.280465521837609699e-02
-3.995722560042946903e-02
-4.823691651348835374e-02
-5.754186215172307078e-02
-6.745702637494281617e-02
-7.753749190599462660e-02
-8.753837085821694619e-02
-9.736995414357435541e-02
-1.067408468638125774e-01
-1.146695253675402287e-01
-1.191651789682701135e-01
-1.173412475285354334e-01
-1.060561982256595093e-01
-8.295219800479551597e-02
-4.756459755280489227e-02
-2.070900016870644289e-03
4.870864826615339815e-02
9.822753364923145214e-02
1.398579175805110542e-01
1.687140032482002117e-01
1.829346232496918967e-01
1.838751933295084962e-01
1.751374927649019253e-01
1.609181606564790701e-01
1.444663364733402289e-01
1.273185392862360987e-01
1.095053249761049063e-01
9.040208980301593644e-02
6.963862810682136528e-02
4.759837427227649187e-02
2.538349846111634042e-02
4.434744176490354461e-03
-1.390114233776788832e-02
-2.865880026119305146e-02
-3.935729389906832826e-02
-4.597640538064814292e-02
-4.887230625319671090e-02
-4.867008073173237359e-02
-4.615532917794196166e-02
-4.218764573109850397e-02
-3.764831117018098416e-02
-3.340470345531565410e-02
-3.025190859434509841e-02
-2.880993553422554754e-02
-2.940816856947889649e-02
-3.203095311009693941e-02
-3.638250790030263943e-02
-4.205603006474799288e-02
-4.871546128358655164e-02
-5.618313161444357662e-02
-6.438967892545802152e-02
-7.323812154409128916e-02
-8.249058218633797956e-02
-9.176479919397653728e-02
-1.006464778893074452e-01
-1.088365143377690164e-01
-1.162085344007631055e-01
-1.226755516916117339e-01
-1.278542861147750620e-01
-1.306490024287530194e-01
-1.289992844288107565e-01
-1.200643469541970154e-01
-1.009802157466101469e-01
-7.003904314088110761e-02
-2.783510363816269623e-02
2.220307496956608340e-02
7.429006631313449238e-02
1.217214621755219328e-01
1.587476639449902638e-01
1.821231605465090664e-01
1.917136546360934668e-01
1.899826701338301893e-01
1.806740179419725201e-01
1.673114559027939485e-01
1.521349711342664945e-01
1.358276438880713366e-01
1.180054580206441606e-01
9.811535202456553306e-02
7.624702793618894081e-02
5.346533042332066860e-02
3.155866151585885043e-02
1.241996430235853960e-02
-2.554444496863907121e-03
-1.274360650565933145e-02
-1.821383054681204039e-02
-1.946206418986072550e-02
-1.723799047536393736e-02
-1.253253410199608314e-02
-6.608649264351305896e-03
-8.790911504995210790e-04
3.429919412532882877e-03
5.667594166065529140e-03
5.925524959814327565e-03
4.817451293377272500e-03
2.970256975852061596e-03
5.444418747967650837e-04
-2.896945199073941088e-03
-8.085159764712858757e-03
-1.552671016640305365e-02
-2.513819197500368960e-02
-3.628784842799720467e-02
-4.819475515234469820e-02
-6.037436689926224676e-02
-7.279393809868277276e-02
-8.562990684258438290e-02
-9.882222637017556988e-02
-1.117601494431978149e-01
-1.233026662026412285e-01
-1.320476634586017217e-01
-1.365652544813114599e-01
-1.353850800758876483e-01
-1.268300669849125040e-01
-1.090626352621096168e-01
-8.067853635768604259e-02
-4.179166696705299139e-02
4.950462523303458817e-03
5.419487657993816987e-02
9.900288204498489120e-02
1.329711485132899218e-01
1.523790744651292439e-01
1.572474017029221460e-01
1.507503715116069731e-01
1.373526052543410092e-01
1.207458916647566605e-01
1.026868662064947535e-01
8.319146432328561325e-02
6.168171825428022531e-02
3.817950725379721383e-02
1.379070965384852909e-02
-9.657418533768787061e-03
-3.036368307741985073e-02
-4.706988162708941603e-02
-5.907296970844895523e-02
-6.595390200267009506e-02
-6.746082268125913606e-02
-6.375576009482201989e-02
-5.579573473650627224e-02
-4.539225417924089290e-02
-3.470620866339656219e-02
-2.541504435804629175e-02
-1.811140714554140135e-02
-1.236100077631913097e-02
-7.360003279252488699e-03
-2.693078891392714641e-03
1.344513928263430837e-03
4.027743544694474716e-03
4.798601754674597548e-03
3.707061645679625428e-03
1.405660575600624004e-03
-1.239575887748653807e-03
-3.613667799371808424e-03
-5.585686935447850554e-03
